<?xml version="1.0" encoding="UTF-8"?>
<xrdMeasurements xmlns="http://www.xrdml.com/XRDMeasurement/1.5" xmlns:xsi="http://www.w3.org/2001/XMLSchema-instance" xsi:schemaLocation="http://www.xrdml.com/XRDMeasurement/1.5 http://www.xrdml.com/XRDMeasurement/1.5/XRDMeasurement.xsd" status="Completed">
	<comment>
		<entry>Configuration=IR Stage, Owner=User-1, Creation date=4/3/2008 12:55:08 PM</entry>
		<entry>Goniometer=PW3050/60 (Theta/Theta); Minimum step size 2Theta:0.001; Minimum step size Omega:0.001</entry>
		<entry>Sample stage=IR Stage (Phi, Tilt, X, Y, Z)</entry>
		<entry>Diffractometer system=XPERT-PRO</entry>
		<entry>Measurement program=D:\user\Pepe\program_files\thin_film_BB.xrdmp, Identifier={F7933AE7-2DB3-41A0-947F-78A67DA2B616}</entry>
	</comment>
	<sample type="To be analyzed">
		<id></id>
		<name></name>
		<preparedBy></preparedBy>
	</sample>
	<xrdMeasurement measurementType="Scan" status="Completed" sampleMode="Reflection">
		<comment>
			<entry>10-40 Step 0,013°, time per step 300s, 1/4 divergence slit, </entry>
			<entry>PHD Lower Level = 4.02 (keV), PHD Upper Level = 11.26 (keV)</entry>
		</comment>
		<usedWavelength intended="K-Alpha">
			<kAlpha1 unit="Angstrom">1.5405980</kAlpha1>
			<kAlpha2 unit="Angstrom">1.5444260</kAlpha2>
			<kBeta unit="Angstrom">1.3922500</kBeta>
			<ratioKAlpha2KAlpha1>0.5000</ratioKAlpha2KAlpha1>
		</usedWavelength>
		<incidentBeamPath>
			<radius unit="mm">240.00</radius>
			<xRayTube id="1010048" name="Empyrean Cu LFF HR (9430 033 7310x) DK411257">
				<tension unit="kV">40</tension>
				<current unit="mA">40</current>
				<anodeMaterial>Cu</anodeMaterial>
				<focus type="Line">
					<length unit="mm">12.0</length>
					<width unit="mm">0.4</width>
					<takeOffAngle unit="deg">6.0</takeOffAngle>
				</focus>
			</xRayTube>
			<sollerSlit id="21010002" name="Soller slits 0.04 rad.">
				<opening unit="rad">0.0400</opening>
			</sollerSlit>
			<mask id="22080002" name="Fixed incident beam mask 10 mm">
				<width unit="mm">6.60</width>
			</mask>
			<divergenceSlit id="22010005" name="Fixed slit 1/4°" xsi:type="fixedDivergenceSlitType">
				<distanceToSample unit="mm">140.00</distanceToSample>
				<height unit="mm">0.38</height>
			</divergenceSlit>
		</incidentBeamPath>
		<diffractedBeamPath>
			<radius unit="mm">240.00</radius>
			<antiScatterSlit id="22090010" name="AS slit 8.0 mm (PIXcel)" xsi:type="fixedAntiScatterSlitType">
				<height unit="mm">8.00</height>
			</antiScatterSlit>
			<sollerSlit id="21020003" name="Large Soller slits 0.04 rad.">
				<opening unit="rad">0.0400</opening>
			</sollerSlit>
			<filter id="20030001" name="Large beta-filter Nickel">
				<material>Ni</material>
				<thickness unit="mm">0.020</thickness>
			</filter>
			<detector id="7010015" name="PIXcel1D detector" xsi:type="rtmsDetectorType">
				<phd>
					<lowerLevel unit="%">25.0</lowerLevel>
					<upperLevel unit="%">70.0</upperLevel>
				</phd>
				<mode>Scanning</mode>
				<activeLength unit="deg">3.347</activeLength>
			</detector>
		</diffractedBeamPath>
		<scan appendNumber="0" mode="Continuous" scanAxis="Gonio" status="Completed">
			<header>
				<startTimeStamp>2016-11-23T17:54:33+01:00</startTimeStamp>
				<endTimeStamp>2016-11-23T17:59:47+01:00</endTimeStamp>
				<author>
					<name>cnu_xlab</name>
				</author>
				<source>
					<applicationSoftware version="5.2a">Data Collector</applicationSoftware>
					<instrumentControlSoftware version="2.2B 20140619">XPERT-PRO</instrumentControlSoftware>
					<instrumentID>0000000011035964</instrumentID>
				</source>
			</header>
			<dataPoints>
				<positions axis="2Theta" unit="deg">
					<startPosition>10.00856514</startPosition>
					<endPosition>79.99297181</endPosition>
				</positions>
				<positions axis="Omega" unit="deg">
					<startPosition>5.00428257</startPosition>
					<endPosition>39.99648591</endPosition>
				</positions>
				<commonCountingTime unit="seconds">12.495</commonCountingTime>
				<intensities unit="counts">579 528 541 519 553 551 568 553 514 550 534 580 569 584 586 536 563 542 583 523 553 509 599 600 504 544 531 538 552 552 544 548 606 489 491 541 531 556 549 547 574 544 496 579 539 540 545 548 516 556 525 514 598 536 602 519 526 538 489 512 501 538 493 527 528 493 531 552 546 507 535 538 494 573 489 504 505 531 505 521 539 521 488 515 514 517 501 526 499 524 518 519 488 517 511 502 487 499 545 479 449 539 546 490 505 543 499 514 506 453 536 514 543 496 489 519 504 537 497 503 465 533 471 490 459 455 497 473 507 482 455 508 505 478 462 495 466 492 466 459 470 428 507 474 504 504 456 456 481 470 470 506 482 462 480 484 451 477 496 482 492 458 437 500 493 477 443 453 470 463 414 451 509 505 464 484 495 480 452 463 443 488 444 453 453 481 456 429 469 456 472 454 434 450 452 456 445 474 466 462 467 479 411 455 481 459 445 444 488 480 486 493 498 486 493 461 448 448 447 443 482 493 464 467 453 459 486 426 462 423 460 452 453 441 424 486 451 418 443 488 445 480 409 455 427 417 435 495 437 453 437 413 464 462 447 459 440 476 438 432 440 469 458 466 459 429 445 428 454 434 464 447 445 447 430 404 430 449 458 452 449 454 444 436 446 438 435 393 451 427 438 459 426 448 435 383 372 447 434 452 409 428 432 466 438 380 409 453 400 443 447 452 428 437 401 410 428 430 441 433 464 427 435 395 388 445 458 437 447 420 430 429 408 471 444 446 417 424 461 397 362 449 431 383 459 460 412 393 413 420 450 414 442 423 391 398 423 380 441 417 398 403 417 385 393 421 411 435 391 385 390 415 438 432 413 398 430 410 381 412 400 402 443 408 407 410 416 374 395 462 425 433 430 423 416 404 443 450 398 401 404 405 433 419 419 409 421 396 420 437 437 428 428 397 435 390 417 430 443 452 439 430 459 505 488 449 484 503 472 428 456 459 452 417 399 421 406 412 415 417 430 386 398 420 420 369 415 378 380 410 431 408 422 401 435 402 424 392 415 395 398 398 415 398 403 374 401 435 404 429 405 410 392 386 408 391 398 421 424 393 402 403 385 378 402 375 400 424 413 366 367 391 455 448 437 397 383 425 405 367 373 411 413 404 404 435 411 387 397 395 402 422 416 377 383 431 394 431 414 397 406 409 423 392 396 395 414 428 413 383 404 415 419 397 400 370 402 396 408 432 419 427 455 382 391 430 396 467 428 454 447 437 447 460 511 497 519 524 575 614 647 677 701 811 730 717 623 664 590 493 516 439 437 414 418 438 440 421 392 427 419 403 426 377 428 401 416 373 369 375 395 402 394 390 386 388 430 392 374 411 409 416 370 408 389 411 386 362 408 378 418 422 369 392 358 412 382 371 426 402 424 374 395 349 361 333 372 392 357 363 370 390 356 368 342 386 378 383 376 398 374 382 380 412 382 393 413 380 379 396 384 393 370 371 413 377 334 408 398 403 362 386 392 393 392 374 364 361 345 372 403 368 369 367 356 379 410 389 394 413 402 353 381 397 375 385 375 377 365 359 344 363 366 363 326 394 372 379 366 376 348 368 373 382 412 375 374 377 358 349 352 335 318 354 356 366 396 358 358 385 348 350 369 343 374 356 360 334 404 370 355 351 357 373 367 342 352 387 378 359 383 361 341 401 345 351 331 337 339 353 359 326 339 337 365 367 338 342 341 328 341 352 358 361 381 403 310 378 378 366 337 349 367 328 348 362 355 391 360 324 385 340 344 349 365 338 343 358 357 335 337 349 332 329 304 341 363 385 337 346 384 367 346 348 350 311 328 356 384 363 334 346 334 364 355 352 324 310 334 322 337 350 355 347 376 351 360 354 364 345 331 358 370 337 344 380 315 361 353 344 331 350 368 314 342 348 351 339 352 317 365 344 362 315 371 381 341 317 335 341 343 333 307 295 362 376 327 347 296 381 348 329 358 317 367 357 346 346 325 362 327 316 314 345 333 360 363 314 364 373 348 359 342 343 329 336 319 340 336 311 334 367 307 350 321 313 317 346 378 362 379 385 438 378 421 426 453 516 457 499 471 410 419 371 427 380 381 342 351 335 329 367 362 346 344 364 322 315 334 291 332 323 324 333 303 308 277 344 316 286 334 339 346 320 336 346 330 329 314 288 307 339 299 327 313 334 310 308 311 300 351 299 333 332 316 312 314 337 307 310 311 282 330 314 318 314 314 316 325 320 304 293 302 312 293 353 339 329 298 296 289 278 313 308 329 297 330 325 298 324 335 331 338 318 306 293 313 332 290 337 304 316 313 316 336 322 307 312 296 319 283 307 306 301 344 320 326 301 298 308 313 329 337 336 322 297 306 360 336 330 348 346 308 312 320 317 319 324 326 321 319 305 326 337 280 302 329 324 328 303 310 323 329 289 299 296 317 291 276 297 342 320 328 284 336 289 321 321 307 286 316 327 302 333 296 315 341 317 297 298 336 351 342 352 343 370 307 298 307 302 303 294 277 289 323 320 306 306 293 286 299 281 334 302 298 299 293 286 300 293 268 323 318 293 343 331 307 298 317 319 298 265 270 263 281 316 306 337 348 286 304 315 264 315 300 284 293 308 319 293 277 326 311 293 317 312 279 338 310 299 290 290 309 310 301 330 294 332 320 314 299 302 306 320 324 311 309 351 328 302 361 348 334 311 289 304 319 340 326 312 311 332 313 292 327 327 305 292 320 310 301 301 308 309 354 342 329 342 317 325 267 297 274 339 347 318 338 327 305 328 305 339 376 327 337 385 346 371 373 366 353 329 340 362 373 355 286 336 357 363 376 397 332 361 341 342 366 389 357 346 373 383 398 348 351 379 395 393 406 422 383 407 448 441 413 508 431 434 491 522 548 565 581 609 648 686 727 835 919 912 1085 1219 1466 1629 1962 2266 2631 3096 3661 4609 5596 7235 9290 11673 12696 10134 7109 6322 6644 6728 5678 3590 2256 1659 1353 1169 978 908 823 751 725 689 579 556 514 492 471 471 467 419 432 428 434 461 420 391 390 379 393 361 355 412 401 406 360 333 365 348 347 333 317 336 348 337 349 315 362 358 365 310 334 359 336 374 324 333 343 325 341 338 330 320 339 341 332 336 347 331 346 322 350 349 352 406 378 359 386 401 433 412 461 510 490 481 466 422 403 448 417 403 368 336 325 355 315 319 311 338 304 287 335 345 302 296 320 301 290 307 299 316 298 301 302 303 291 306 305 314 304 242 310 299 301 250 302 322 299 303 290 316 314 337 290 250 298 311 278 320 261 295 286 315 295 272 299 274 290 250 280 285 268 278 300 313 297 294 305 306 276 283 276 303 306 312 331 299 306 297 312 300 304 303 317 303 352 310 312 301 331 335 307 348 311 311 294 277 277 284 300 294 287 304 275 299 299 276 282 249 299 273 299 304 312 327 285 256 307 322 306 269 284 287 284 317 266 307 278 285 295 310 312 289 311 332 302 302 293 302 286 310 291 297 297 281 280 293 325 258 259 285 290 293 283 257 291 297 297 298 267 293 305 270 284 298 275 276 291 319 296 310 291 275 270 281 318 323 283 277 272 309 300 342 329 308 311 334 330 329 323 339 348 322 374 340 347 336 344 338 329 332 306 373 347 338 366 362 368 392 398 389 394 388 361 438 407 388 398 419 396 441 402 428 474 449 451 437 464 420 458 461 430 507 466 458 448 478 475 505 481 514 527 483 495 462 484 503 447 484 503 500 505 473 512 504 531 528 525 515 511 492 458 484 488 471 498 477 499 509 464 474 487 456 466 469 464 448 466 424 448 451 431 447 426 420 444 423 425 438 398 419 418 375 416 427 393 394 364 395 373 366 378 343 381 344 393 368 341 330 323 369 351 333 332 311 316 327 317 301 325 312 357 296 293 324 306 304 335 338 307 311 295 319 301 292 278 305 305 290 283 295 285 315 311 288 284 311 280 293 291 261 295 292 276 294 276 291 289 276 323 274 276 294 297 272 278 237 248 247 288 301 300 289 292 282 271 247 273 284 243 244 217 265 232 274 246 258 245 259 240 304 267 260 261 260 238 247 263 264 221 226 248 246 248 288 228 287 245 233 237 262 220 244 256 245 249 237 260 257 246 284 224 197 246 235 264 222 220 263 261 231 248 243 226 244 275 217 210 246 235 268 229 275 226 226 240 245 280 286 246 218 230 241 246 241 240 243 246 234 272 257 231 287 225 248 239 249 244 221 223 240 198 227 222 273 257 261 228 243 236 214 229 240 220 244 286 213 230 239 216 209 236 227 224 229 236 250 225 237 244 243 247 236 236 261 251 218 248 240 232 229 262 259 243 277 248 225 276 311 302 316 293 314 326 322 303 309 307 320 308 276 281 242 261 246 237 224 233 238 195 246 243 204 249 258 230 258 223 238 219 247 234 269 218 238 214 235 206 224 234 219 244 224 239 223 230 238 224 248 213 233 207 238 231 224 257 266 221 293 266 243 207 249 289 267 285 314 356 360 398 408 425 386 374 304 323 339 314 335 308 322 298 267 275 280 238 288 267 257 239 264 242 272 218 285 262 243 249 232 242 220 233 243 227 228 221 218 244 219 229 226 235 239 248 231 237 240 223 247 232 223 258 181 205 234 218 235 233 245 241 218 231 229 226 248 236 230 222 212 228 205 228 246 236 212 237 226 242 209 228 230 230 248 204 221 212 236 220 194 265 206 214 218 212 214 210 223 227 243 243 245 243 258 214 231 259 229 211 188 214 217 221 192 210 233 226 199 226 218 230 215 229 236 216 201 193 234 265 237 214 227 232 220 230 205 256 237 242 225 228 228 245 243 240 217 193 233 211 201 189 223 214 186 223 224 229 223 202 231 273 221 225 178 210 235 223 223 222 212 199 206 218 198 220 234 256 236 235 223 223 200 231 201 195 226 227 210 194 196 241 226 239 232 264 242 237 276 225 239 256 268 265 322 278 301 232 279 250 233 285 282 248 231 265 266 281 265 271 258 267 238 273 268 258 274 251 288 288 286 306 291 258 268 297 262 274 297 289 293 260 300 270 290 286 256 268 296 291 263 290 298 294 294 290 256 288 283 284 279 319 297 294 308 317 329 322 329 316 296 331 314 299 297 338 335 357 354 347 325 361 350 340 353 370 367 424 443 398 442 467 464 494 473 532 542 535 648 605 694 704 715 804 844 953 1015 1123 1186 1347 1450 1559 1814 1938 2125 2391 2740 2896 3215 3662 4158 4688 5238 5700 6419 7160 7735 7998 8586 8624 8822 8823 8436 8187 7876 7377 6990 6374 5975 5459 4997 4531 3988 3488 3042 2627 2339 2142 1842 1658 1448 1378 1212 1184 1038 1010 873 793 808 739 678 612 601 584 561 517 502 529 440 462 410 443 420 408 392 407 379 315 341 320 363 335 316 310 291 281 272 271 272 281 263 278 288 293 307 280 272 262 233 283 261 231 256 262 239 247 247 256 291 243 268 267 245 265 261 223 237 248 241 234 266 272 262 228 248 236 222 223 267 247 265 262 244 227 208 256 207 215 220 207 198 219 231 231 205 234 247 244 224 230 265 267 221 241 242 215 222 214 230 232 235 210 190 191 236 221 234 208 209 219 184 219 203 212 199 206 219 238 202 217 191 241 239 207 216 212 222 229 259 201 216 187 225 224 229 201 223 212 231 215 219 222 249 237 287 248 271 271 261 259 271 272 282 265 274 269 267 242 267 279 231 218 217 242 237 209 214 218 223 214 234 227 211 184 219 249 229 210 222 204 221 239 217 213 197 211 222 230 199 221 190 200 203 233 222 222 213 236 244 223 244 210 241 220 205 197 222 247 243 244 213 201 238 230 246 223 225 196 206 247 231 224 242 221 225 202 256 259 234 247 264 256 246 229 237 238 227 277 267 279 206 272 256 242 244 234 243 206 272 238 227 248 262 236 235 238 229 205 215 226 234 245 220 247 214 207 229 226 214 225 228 248 193 211 218 233 228 292 208 211 216 224 231 234 228 230 219 226 205 234 260 260 262 222 289 264 292 312 294 333 316 347 349 388 376 384 443 470 497 549 639 780 921 1097 1246 1607 2097 2547 2879 3074 3147 3491 3727 3873 3483 3036 2580 2446 2167 2103 2193 2243 2054 1883 1418 1157 859 762 657 596 508 542 473 436 386 383 356 364 304 333 280 286 279 272 240 214 242 245 244 269 196 232 210 257 237 223 233 244 220 233 192 226 238 191 197 221 242 230 205 232 196 227 209 203 204 178 231 209 212 189 221 202 209 228 217 211 213 185 220 200 201 207 205 200 221 214 185 205 195 179 191 189 204 196 187 178 196 195 206 193 184 212 167 197 198 209 181 185 182 175 187 187 191 200 156 198 204 216 219 190 176 198 186 189 204 205 182 200 187 168 186 175 205 183 209 162 201 222 208 194 188 198 164 190 186 193 202 176 191 180 197 208 214 206 193 207 179 167 195 202 227 169 182 204 186 172 191 182 157 191 205 186 176 192 184 175 178 160 167 181 179 185 176 209 198 173 186 166 179 187 176 198 175 183 188 184 173 193 177 208 161 190 181 156 192 162 177 183 188 198 194 171 193 182 188 210 205 201 179 200 188 220 227 206 201 186 227 180 194 201 216 193 215 211 191 197 201 181 205 183 194 185 165 185 193 174 183 173 175 156 178 176 183 180 207 162 178 155 182 159 179 192 180 179 186 188 213 233 165 212 235 203 188 224 220 210 210 182 197 211 182 203 216 166 213 195 217 192 174 164 175 206 194 195 155 169 182 190 166 188 177 146 186 173 191 193 178 180 158 194 155 189 194 173 153 165 171 184 178 173 194 183 165 161 156 181 187 161 157 166 188 169 167 195 176 164 163 189 167 167 181 184 197 189 171 192 199 202 179 173 200 166 145 149 167 176 192 183 162 188 176 174 174 148 176 175 179 180 155 195 185 172 175 189 182 158 174 157 165 153 187 168 183 150 167 163 165 151 173 172 189 142 149 182 178 162 167 186 178 141 158 186 178 184 174 161 169 191 159 203 147 164 166 163 177 157 159 166 160 157 165 195 150 174 182 178 184 171 168 173 189 190 171 159 186 178 184 183 166 155 178 193 191 189 182 174 185 178 159 178 185 164 164 168 170 156 182 168 165 170 157 142 171 162 164 158 182 170 171 149 166 153 157 182 173 177 156 179 178 176 161 164 153 144 174 196 175 164 175 180 180 164 169 154 182 185 156 139 183 171 163 176 147 133 153 189 174 183 156 168 171 187 187 176 167 176 181 159 151 175 148 192 147 148 142 152 154 171 179 172 171 134 160 169 193 171 168 168 164 167 160 179 194 176 170 178 171 183 182 166 180 175 152 150 169 152 182 161 168 167 164 175 147 163 177 167 154 182 182 156 189 168 187 157 146 167 154 162 170 180 168 168 182 179 190 170 164 207 151 165 158 164 195 161 177 176 163 199 166 157 182 183 176 189 177 197 196 182 190 207 185 198 211 216 219 265 219 232 237 265 261 244 275 336 330 361 434 485 544 708 971 1115 1300 1499 1518 1436 1303 1086 1071 1028 1059 1148 1296 1331 1340 1255 1075 899 771 682 678 611 600 563 564 469 442 402 318 325 272 260 289 277 264 273 198 204 226 214 219 198 207 224 200 215 194 177 177 199 181 189 199 173 182 210 192 186 190 196 201 183 213 211 192 192 193 196 186 194 168 165 182 171 170 174 188 187 213 176 180 182 159 171 189 167 195 193 213 174 166 190 175 182 173 188 141 182 189 188 173 201 173 215 205 203 173 194 183 195 191 205 232 193 213 201 178 193 175 185 220 201 198 196 216 196 199 227 165 216 223 249 218 237 207 196 194 202 201 240 240 245 218 211 239 220 219 226 238 215 272 246 268 231 238 264 241 258 262 283 248 275 302 301 273 232 277 302 296 303 283 323 317 339 279 293 327 311 339 331 329 299 318 328 308 313 306 355 317 298 334 354 333 340 337 329 356 353 379 373 308 361 327 317 364 352 347 352 324 341 331 334 328 361 341 345 346 344 342 361 350 352 322 295 337 331 338 315 339 311 309 293 313 319 305 292 323 312 315 298 279 342 282 311 270 306 274 285 308 295 263 250 279 257 299 267 289 267 271 263 229 222 245 241 250 239 269 224 223 236 195 263 257 230 245 229 225 243 216 201 219 197 250 204 194 222 230 198 207 215 203 209 205 196 184 198 213 204 224 218 214 205 184 189 192 191 203 210 185 198 183 188 175 187 195 201 203 170 168 174 196 174 177 203 176 182 176 183 191 182 198 177 170 182 178 198 161 178 192 174 189 176 149 193 193 176 164 165 180 191 180 168 144 141 176 163 201 180 171 160 176 175 176 167 182 174 159 170 177 155 195 160 148 168 165 193 190 168 169 168 174 129 151 179 181 206 173 178 160 166 185 147 156 147 173 162 177 163 176 180 131 158 167 161 151 144 173 151 155 153 175 152 160 166 144 162 167 166 171 166 154 169 152 148 135 144 144 152 132 159 156 171 162 142 142 137 156 153 175 160 169 174 140 150 167 145 167 163 179 165 168 158 171 163 154 137 156 130 155 149 149 149 148 159 166 150 162 144 118 170 139 142 139 147 157 136 133 141 145 150 152 166 147 155 164 133 151 140 148 137 170 156 151 132 168 148 174 164 150 123 160 143 134 131 129 139 152 110 148 130 143 138 155 146 154 128 151 153 162 145 140 155 128 138 144 146 153 140 146 140 110 136 123 148 123 148 134 168 138 128 126 129 144 135 142 149 143 184 151 142 141 163 140 142 144 144 135 135 154 127 144 141 151 116 149 153 150 159 152 154 147 145 145 139 151 155 178 178 153 160 161 160 146 143 148 134 153 165 159 156 149 129 161 153 142 137 126 151 141 116 138 145 132 159 172 153 129 140 149 156 141 165 119 136 147 121 154 137 136 155 117 134 129 148 139 126 126 159 147 157 132 123 147 147 126 139 121 151 139 126 145 140 142 147 143 120 157 143 149 141 138 153 142 132 139 151 124 122 128 142 142 143 149 138 124 131 142 144 145 154 134 142 164 124 133 126 119 148 130 154 119 154 116 126 148 151 147 151 133 126 141 144 141 143 148 173 127 144 153 153 149 137 132 146 142 140 136 142 131 146 168 141 137 145 131 148 140 158 135 146 144 146 139 158 158 147 139 150 119 158 121 109 132 156 154 145 147 141 122 160 144 148 129 153 132 144 145 137 130 142 136 139 121 143 150 152 133 137 150 145 151 137 166 158 130 144 134 123 111 150 141 143 148 129 121 116 139 162 137 146 163 140 132 163 161 145 156 141 138 162 146 139 141 176 167 132 162 175 158 164 148 154 186 180 148 168 124 123 156 141 139 146 142 157 162 162 165 151 147 149 142 137 140 142 124 159 148 152 145 142 142 137 130 140 128 145 143 116 136 144 140 141 134 141 138 132 147 126 135 153 135 143 144 178 127 142 136 143 167 137 164 151 140 141 152 140 170 148 139 130 139 140 145 147 143 140 171 122 136 153 151 155 135 165 170 136 145 143 153 138 139 145 148 160 159 157 177 142 157 164 142 137 142 157 157 160 145 134 147 156 156 153 167 167 159 160 174 153 166 198 170 179 198 179 186 213 228 211 294 247 272 326 355 371 386 329 332 307 274 278 274 290 264 295 282 323 336 318 308 325 269 274 274 259 224 217 225 216 191 214 201 212 187 191 194 199 179 170 198 183 167 183 174 163 158 158 151 171 175 169 143 138 136 161 136 147 139 140 150 157 174 154 152 150 139 159 145 142 165 153 143 158 157 135 148 130 125 123 137 135 148 136 136 128 116 132 121 172 147 119 137 151 145 147 137 126 130 144 113 168 152 144 142 151 123 134 156 148 121 147 141 113 132 140 132 159 140 146 131 155 119 147 138 137 150 141 135 130 149 130 153 142 144 131 139 157 164 144 164 139 130 157 145 155 144 145 134 135 142 137 159 123 159 125 148 132 160 112 129 127 142 142 153 146 149 135 118 151 125 136 118 141 139 161 134 130 124 145 160 134 152 149 143 134 152 136 172 125 134 124 157 139 143 138 127 142 155 135 123 126 133 135 147 138 137 154 130 153 123 131 131 129 134 132 149 144 141 136 133 152 130 132 154 161 152 148 146 164 134 142 144 121 145 155 170 166 133 144 125 144 141 123 149 152 125 131 130 142 136 121 144 134 116 114 165 135 133 112 121 145 117 112 96 129 123 145 149 120 137 164 144 122 144 137 145 123 141 135 127 125 126 129 112 141 136 131 135 111 124 128 135 125 148 157 124 122 123 131 137 126 125 132 108 132 117 140 155 136 126 127 129 121 142 140 128 131 123 162 133 110 156 125 169 126 139 147 156 131 118 136 132 145 146 119 136 124 130 147 148 120 143 125 124 148 124 141 132 146 133 137 128 117 149 127 136 148 115 124 129 122 127 137 115 136 123 149 133 142 131 134 132 116 157 153 155 124 150 123 133 118 142 134 135 119 136 128 134 128 139 120 142 123 146 143 127 135 116 138 160 115 125 125 138 165 142 146 120 106 138 112 106 144 145 135 115 142 123 121 120 126 136 127 129 137 123 115 133 140 127 134 132 148 117 129 126 143 120 135 134 151 135 117 132 113 147 122 130 138 127 137 128 123 126 128 130 122 149 126 128 122 112 130 144 145 131 144 147 148 122 133 118 120 147 132 133 134 125 122 123 126 149 114 139 133 127 134 117 141 142 168 137 117 141 134 135 130 144 138 152 133 146 149 136 139 148 129 168 167 184 167 188 190 198 260 260 256 327 364 409 376 379 406 438 441 449 466 415 406 343 264 302 298 289 290 284 289 300 304 315 316 328 338 280 276 244 198 204 197 187 196 168 180 170 164 174 158 147 167 178 159 168 186 167 179 170 178 182 148 171 160 155 167 147 159 161 181 163 170 161 189 189 183 203 179 177 178 147 179 157 162 184 179 192 181 191 208 188 221 185 222 217 201 204 222 210 216 231 207 225 250 225 213 180 210 238 235 222 218 207 212 203 192 204 222 237 198 194 179 203 205 195 183 176 217 192 190 169 207 180 163 211 182 158 164 138 156 167 150 157 167 154 164 142 146 138 140 133 130 151 160 130 139 145 148 144 139 131 133 134 123 131 137 140 140 131 121 93 132 119 116 119 127 130 130 116 118 134 118 152 139 145 120 107 127 117 120 126 126 116 121 112 129 122 138 122 106 118 139 123 124 120 102 111 119 123 119 136 125 134 103 113 116 127 106 111 110 119 125 112 111 122 113 130 117 108 112 126 127 107 125 142 127 128 124 128 139 123 113 99 110 116 129 130 105 115 130 119 118 124 108 134 111 138 137 114 103 106 129 93 118 119 116 132 116 125 103 103 127 132 125 144 109 140 117 103 122 116 118 107 129 124 96 96 109 107 113 116 132 116 104 115 107 121 119 120 127 97 107 124 122 102 114 115 102 126 128 92 105 123 132 101 112 123 125 116 106 106 106 134 108 101 119 140 92 134 136 118 125 127 122 120 130 128 103 96 114 102 128 149 128 113 119 156 132 131 141 147 107 120 109 114 108 107 126 120 112 123 124 128 125 127 103 101 122 129 123 121 129 115 104 92 143 115 128 103 109 116 127 122 114 127 123 127 133 112 149 120 109 116 130 121 139 132 114 118 139 114 103 123 127 126 127 119 120 131 119 118 115 108 125 138 116 120 113 118 135 127 135 131 131 115 94 122 111 111 117 100 125 112 139 121 111 124 123 116 110 108 129 120 120 88 125 134 111 105 105 113 113 90 110 131 132 116 109 97 108 119 132 100 106 104 105 123 127 121 123 114 105 92 115 126 119 106 131 114 129 118 135 131 133 113 112 122 112 126 101 95 115 116 126 130 91 119 106 115 114 115 102 106 115 109 112 121 127 104 115 114 133 99 111 103 121 126 119 121 114 119 110 98 121 120 109 107 125 109 131 113 117 137 127 120 98 118 118 104 115 118 116 117 116 108 93 112 126 109 111 146 118 106 98 112 117 113 90 119 134 98 110 113 108 128 119 117 108 121 107 99 85 121 104 104 114 123 99 102 129 101 120 125 104 125 110 139 110 118 107 106 110 101 109 124 108 101 109</intensities>
			</dataPoints>
		</scan>
	</xrdMeasurement>
</xrdMeasurements>
